Time	[A]	[B]	[C]	Values[ThisIsAssignment]	Values[A2B]	Values[B2C]	Values[B2C_0_k2]	Values[C2A_k1]	Values[ADeg_k1]
0	1	1	1	13	4	9	0.1	0.1	0.1
0.1	0.675109	0.62751	1.68912	13	4	9	0.1	0.1	0.1
0.2	0.463874	0.412093	2.11015	13	4	9	0.1	0.1	0.1
0.3	0.326395	0.282783	2.37304	13	4	9	0.1	0.1	0.1
0.4	0.236861	0.202995	2.53958	13	4	9	0.1	0.1	0.1
0.5	0.178525	0.152808	2.64605	13	4	9	0.1	0.1	0.1
0.6	0.140505	0.120829	2.71446	13	4	9	0.1	0.1	0.1
0.7	0.115721	0.100279	2.75852	13	4	9	0.1	0.1	0.1
0.8	0.0995612	0.0869994	2.78689	13	4	9	0.1	0.1	0.1
0.9	0.0890218	0.0783871	2.80511	13	4	9	0.1	0.1	0.1
1	0.082146	0.0727878	2.81673	13	4	9	0.1	0.1	0.1
1.1	0.0776581	0.0691407	2.82406	13	4	9	0.1	0.1	0.1
1.2	0.0747269	0.0667614	2.82861	13	4	9	0.1	0.1	0.1
1.3	0.0728105	0.0652066	2.83135	13	4	9	0.1	0.1	0.1
1.4	0.0715556	0.0641886	2.8329	13	4	9	0.1	0.1	0.1
1.5	0.0707318	0.0635201	2.83368	13	4	9	0.1	0.1	0.1
1.6	0.0701892	0.0630793	2.83396	13	4	9	0.1	0.1	0.1
1.7	0.0698299	0.0627869	2.83391	13	4	9	0.1	0.1	0.1
1.8	0.06959	0.0625913	2.83365	13	4	9	0.1	0.1	0.1
1.9	0.0694281	0.0624587	2.83325	13	4	9	0.1	0.1	0.1
2	0.0693168	0.0623672	2.83276	13	4	9	0.1	0.1	0.1
2.1	0.0692387	0.0623026	2.83221	13	4	9	0.1	0.1	0.1
2.2	0.0691822	0.0622553	2.83162	13	4	9	0.1	0.1	0.1
2.3	0.0691397	0.0622195	2.83101	13	4	9	0.1	0.1	0.1
2.4	0.0691065	0.0621911	2.83038	13	4	9	0.1	0.1	0.1
2.5	0.0690792	0.0621676	2.82974	13	4	9	0.1	0.1	0.1
2.6	0.0690558	0.0621472	2.82909	13	4	9	0.1	0.1	0.1
2.7	0.0690349	0.0621288	2.82844	13	4	9	0.1	0.1	0.1
2.8	0.0690157	0.0621118	2.82779	13	4	9	0.1	0.1	0.1
2.9	0.0689976	0.0620957	2.82713	13	4	9	0.1	0.1	0.1
3	0.0689802	0.0620802	2.82647	13	4	9	0.1	0.1	0.1
3.1	0.0689632	0.062065	2.82582	13	4	9	0.1	0.1	0.1
3.2	0.0689466	0.06205	2.82516	13	4	9	0.1	0.1	0.1
3.3	0.0689301	0.0620353	2.8245	13	4	9	0.1	0.1	0.1
3.4	0.0689138	0.0620206	2.82384	13	4	9	0.1	0.1	0.1
3.5	0.0688976	0.062006	2.82318	13	4	9	0.1	0.1	0.1
3.6	0.0688814	0.0619915	2.82252	13	4	9	0.1	0.1	0.1
3.7	0.0688653	0.061977	2.82187	13	4	9	0.1	0.1	0.1
3.8	0.0688492	0.0619625	2.82121	13	4	9	0.1	0.1	0.1
3.9	0.0688331	0.061948	2.82055	13	4	9	0.1	0.1	0.1
4	0.0688171	0.0619336	2.81989	13	4	9	0.1	0.1	0.1
4.1	0.068801	0.0619191	2.81924	13	4	9	0.1	0.1	0.1
4.2	0.0687849	0.0619047	2.81858	13	4	9	0.1	0.1	0.1
4.3	0.0687689	0.0618902	2.81792	13	4	9	0.1	0.1	0.1
4.4	0.0687529	0.0618758	2.81726	13	4	9	0.1	0.1	0.1
4.5	0.0687368	0.0618614	2.81661	13	4	9	0.1	0.1	0.1
4.6	0.0687208	0.0618469	2.81595	13	4	9	0.1	0.1	0.1
4.7	0.0687048	0.0618325	2.81529	13	4	9	0.1	0.1	0.1
4.8	0.0686887	0.0618181	2.81464	13	4	9	0.1	0.1	0.1
4.9	0.0686727	0.0618037	2.81398	13	4	9	0.1	0.1	0.1
5	0.0686567	0.0617893	2.81332	13	4	9	0.1	0.1	0.1
5.1	0.0686407	0.0617748	2.81267	13	4	9	0.1	0.1	0.1
5.2	0.0686247	0.0617604	2.81201	13	4	9	0.1	0.1	0.1
5.3	0.0686087	0.061746	2.81136	13	4	9	0.1	0.1	0.1
5.4	0.0685927	0.0617316	2.8107	13	4	9	0.1	0.1	0.1
5.5	0.0685767	0.0617172	2.81005	13	4	9	0.1	0.1	0.1
5.6	0.0685607	0.0617029	2.80939	13	4	9	0.1	0.1	0.1
5.7	0.0685447	0.0616885	2.80873	13	4	9	0.1	0.1	0.1
5.8	0.0685287	0.0616741	2.80808	13	4	9	0.1	0.1	0.1
5.9	0.0685127	0.0616597	2.80742	13	4	9	0.1	0.1	0.1
6	0.0684968	0.0616453	2.80677	13	4	9	0.1	0.1	0.1
6.1	0.0684808	0.0616309	2.80612	13	4	9	0.1	0.1	0.1
6.2	0.0684648	0.0616166	2.80546	13	4	9	0.1	0.1	0.1
6.3	0.0684489	0.0616022	2.80481	13	4	9	0.1	0.1	0.1
6.4	0.0684329	0.0615878	2.80415	13	4	9	0.1	0.1	0.1
6.5	0.0684169	0.0615735	2.8035	13	4	9	0.1	0.1	0.1
6.6	0.068401	0.0615591	2.80285	13	4	9	0.1	0.1	0.1
6.7	0.068385	0.0615448	2.80219	13	4	9	0.1	0.1	0.1
6.8	0.0683691	0.0615304	2.80154	13	4	9	0.1	0.1	0.1
6.9	0.0683531	0.0615161	2.80088	13	4	9	0.1	0.1	0.1
7	0.0683372	0.0615017	2.80023	13	4	9	0.1	0.1	0.1
7.1	0.0683213	0.0614874	2.79958	13	4	9	0.1	0.1	0.1
7.2	0.0683053	0.061473	2.79893	13	4	9	0.1	0.1	0.1
7.3	0.0682894	0.0614587	2.79827	13	4	9	0.1	0.1	0.1
7.4	0.0682735	0.0614444	2.79762	13	4	9	0.1	0.1	0.1
7.5	0.0682576	0.06143	2.79697	13	4	9	0.1	0.1	0.1
7.6	0.0682416	0.0614157	2.79632	13	4	9	0.1	0.1	0.1
7.7	0.0682257	0.0614014	2.79566	13	4	9	0.1	0.1	0.1
7.8	0.0682098	0.0613871	2.79501	13	4	9	0.1	0.1	0.1
7.9	0.0681939	0.0613728	2.79436	13	4	9	0.1	0.1	0.1
8	0.068178	0.0613584	2.79371	13	4	9	0.1	0.1	0.1
8.1	0.0681621	0.0613441	2.79306	13	4	9	0.1	0.1	0.1
8.2	0.0681462	0.0613298	2.79241	13	4	9	0.1	0.1	0.1
8.3	0.0681303	0.0613155	2.79175	13	4	9	0.1	0.1	0.1
8.4	0.0681144	0.0613012	2.7911	13	4	9	0.1	0.1	0.1
8.5	0.0680985	0.0612869	2.79045	13	4	9	0.1	0.1	0.1
8.6	0.0680827	0.0612726	2.7898	13	4	9	0.1	0.1	0.1
8.7	0.0680668	0.0612583	2.78915	13	4	9	0.1	0.1	0.1
8.8	0.0680509	0.0612441	2.7885	13	4	9	0.1	0.1	0.1
8.9	0.068035	0.0612298	2.78785	13	4	9	0.1	0.1	0.1
9	0.0680192	0.0612155	2.7872	13	4	9	0.1	0.1	0.1
9.1	0.0680033	0.0612012	2.78655	13	4	9	0.1	0.1	0.1
9.2	0.0679875	0.061187	2.7859	13	4	9	0.1	0.1	0.1
9.3	0.0679716	0.0611727	2.78525	13	4	9	0.1	0.1	0.1
9.4	0.0679558	0.0611584	2.7846	13	4	9	0.1	0.1	0.1
9.5	0.0679399	0.0611442	2.78395	13	4	9	0.1	0.1	0.1
9.6	0.0679241	0.0611299	2.7833	13	4	9	0.1	0.1	0.1
9.7	0.0679082	0.0611156	2.78265	13	4	9	0.1	0.1	0.1
9.8	0.0678924	0.0611014	2.782	13	4	9	0.1	0.1	0.1
9.9	0.0678766	0.0610871	2.78136	13	4	9	0.1	0.1	0.1
10	0.0678607	0.0610729	2.78071	13	4	9	0.1	0.1	0.1
